X,R*THETA,R
-0.007160932,19.656508723245867,3.244744601601392
-0.007090962,19.663665544405568,3.2447539565314045
-0.005286052,19.67199222609683,3.2449959436018547
-0.001503159,19.681018744683556,3.24550437292585
0.004808741,19.68909891528728,3.2463559968454705
0.011842667,19.695071377324084,3.2473100180116976
0.018794404,19.699672520273083,3.2482580240843255
0.025529976,19.703181966802866,3.249181448387412
0.032041557,19.705899711281468,3.250078812719934
0.038389873,19.708137220065723,3.250957976521645
0.044595861,19.70999881210542,3.2518215718432417
0.050655259,19.711499217564057,3.252668741192214
0.056565408,19.71265340720556,3.2534988383774324
0.062324908,19.71347601078589,3.2543113640933483
0.10271151,19.717710175679546,3.2601058022358003
0.142363828,19.72137508796037,3.2659687961821398
0.181593867,19.725120208102723,3.271937738851251
0.220601647,19.72933916296461,3.2780356872003997
0.259528221,19.734366847679272,3.284289581424553
0.298523728,19.740519755098905,3.2907216302857
0.337636211,19.7479145777065,3.2973415889163116
0.376872948,19.756597750623538,3.304155589889533
0.416244127,19.76661751217136,3.3111694235790052
0.455759936,19.77801870697301,3.3183882901044943
0.495430565,19.79084284380661,3.3258168074538563
0.535259473,19.805127264121722,3.3334601211636024
0.57523238,19.820865983407202,3.341320080635204
0.615332749,19.838037138201514,3.3493966171602945
0.65554403,19.856623353973198,3.357690400136993
0.695849666,19.8766116312665,3.366202819421292
0.736233685,19.897992610386616,3.3749357637679065
0.776687213,19.9207631981528,3.3838908017020923
0.817205165,19.94493262361365,3.3930706842722147
0.857782383,19.970512193062383,3.4024784941638275
0.898413709,19.997514244658888,3.412117476172874
0.939093985,20.025952100015562,3.421991028547147
0.97981606,20.055836453970226,3.4321025864297106
1.020568134,20.0871588743205,3.442453592916966
1.061337964,20.119907292422347,3.4530450277205014
1.102113305,20.154072718378373,3.463878387764765
1.142881916,20.189649125550343,3.4749556695416888
1.183632622,20.2266339074218,3.486279200562983
1.224365374,20.265050727610827,3.4978530139816426
1.265084916,20.304952681092697,3.5096847588443816
1.305795782,20.346392434762805,3.5217820281362986
1.346502509,20.389420581992628,3.5341520473161374
1.387209634,20.43408560627024,3.5468016665116577
1.427921206,20.48043796518936,3.5597381390113663
1.468638854,20.52853619450426,3.5729704808532654
1.509363506,20.578438565293787,3.586507757731636
1.550096086,20.63020192351544,3.600358774781027
1.590837519,20.683881722059912,3.6145320816469004
1.631587404,20.739529937550405,3.629035945768185
1.672334173,20.797171003070222,3.64387679624525
1.713063596,20.856813765730315,3.659059216149345
1.753761827,20.91846951960346,3.674588121188263
1.794415008,20.98215208561649,3.6904688624445563
1.835009263,21.047877769563982,3.7067072193065598
1.875532762,21.11566949088714,3.72330940784002
1.915977016,21.18556694220162,3.7402835494219038
1.95633289,21.25761312337371,3.757638378204886
1.996591103,21.331851428330413,3.775382674988499
2.036742217,21.408325581760618,3.793525254343446
2.076777428,21.4870818933623,3.8120751223701217
2.11669213,21.568193671232148,3.831044428561049
2.156480499,21.651748797684746,3.8504477967596165
2.196136163,21.737833469956257,3.870299591127616
2.235652507,21.826532026955906,3.890613807172705
2.275022605,21.91792737288214,3.9114041464929348
2.314232242,22.01215917494918,3.932694722129895
2.353272526,22.10928169893556,3.9544949202666775
2.392140791,22.209281354404855,3.9768020223756713
2.43083438,22.312143499068842,3.999613110933628
2.469350645,22.41785250390338,4.02292508052124
2.507688193,22.526369363892947,4.04673092716073
2.545853455,22.63754150788396,4.071004496039761
2.583853858,22.751237331698942,4.095722745289622
2.621696866,22.86733284110004,4.12086392026482
2.659390212,22.985705489671716,4.1464065484245625
2.696941888,23.106234149064274,4.172329433894005
2.734362395,23.228786371501002,4.198609194825686
2.771666415,23.35322414815543,4.225220719745768
2.808869091,23.479414761967377,4.252139686485826
2.845985772,23.607226539221468,4.279341976935611
2.883031987,23.736528736425324,4.306803651159372
2.920021495,23.867211871378668,4.334504426281542
2.956952099,23.99930634975365,4.3624486638754885
2.993815275,24.13287181515734,4.3906465607739955
3.030602528,24.267964267916522,4.419107704360552
3.067305232,24.404639240513163,4.447841575420273
3.103914598,24.54295167228991,4.476857533834086
3.140419454,24.682944929623506,4.5061637944921875
3.176806732,24.82464792868938,4.535766919105552
3.213063751,24.968090359438136,4.565673448625718
3.249177698,25.113302163249475,4.595889953362049
3.285135623,25.26031341687903,4.626423009047392
3.320924434,25.409154194223103,4.657279173083702
3.356530895,25.559854441191607,4.688464958767003
3.391941618,25.712443851331077,4.719986813224711
3.427143068,25.866951712408575,4.7518510870843995
3.462121561,26.02340677012167,4.784064009937256
3.496863276,26.181837172115834,4.816631671625006
3.530968534,26.34045805261887,4.849187998146039
3.564815937,26.5010625874833,4.882102457317242
3.598390828,26.663665982596104,4.915379092631978
3.631678669,26.828283441450104,4.949021942861055
3.664665057,26.994930142118843,4.98303503690453
3.697334765,27.163616744766788,5.017422036724509
3.729668165,27.334313756708195,5.052181865439753
3.761648762,27.506984663581754,5.087311879886884
3.793259618,27.681595531855827,5.122809708338787
3.824483057,27.858115245123546,5.158673492915434
3.855300522,28.03651473281432,5.19490175066054
3.885692309,28.216765101175945,5.231493283620575
3.915641632,28.39881597145772,5.268442831298179
3.94513452,28.582613237673954,5.305744256708222
3.974156721,28.768100586396933,5.343390960139847
4.002693926,28.95522058560651,5.381376094903321
4.030731694,29.143913883398,5.419692398019711
4.058255788,29.33412113652504,5.4583325763066535
4.085251884,29.525780772449675,5.4972888446753645
4.111705634,29.71882898800697,5.53655291687334
4.137602838,29.91320061146867,5.576116172172585
4.162929442,30.108828633820174,5.6159695504589
4.187674864,30.30565200145018,5.656104014577478
4.211835171,30.503621794722246,5.696510880018361
4.23540251,30.702683911454894,5.737181235352117
4.258368805,30.90278414269645,5.7781061982742665
4.280728226,31.103864810258123,5.819276071755585
4.302475131,31.30586833617242,5.860681182137055
4.323604208,31.50873412546109,5.902311257840819
4.344111503,31.71239800208781,5.944155221169867
4.363993808,31.916795571650955,5.986201882992086
4.383248422,32.1218623257311,6.028439977297418
4.401873174,32.327533851966216,6.070858200925975
4.419866473,32.53374771272834,6.113445437461875
4.437229114,32.740446235717066,6.156190865274549
4.453962243,32.947570845340316,6.199083633257065
4.470066072,33.15506155817748,6.242112791911988
4.485543051,33.36285760401976,6.285267036350503
4.500396182,33.57089748491828,6.328534793194487
4.514647815,33.77908156334141,6.371898018170303
4.528338494,33.98725227697111,6.415329043210256
4.541507585,34.19525891023037,6.458801723693677
4.554195044,34.40295563022732,6.502290866394883
4.566441282,34.61020114318917,6.545772156531475
4.578285604,34.816861753368926,6.589222704359575
4.589758416,35.022828215551,6.632623665127728
4.600890074,35.228004310977575,6.675958387650667
4.611710804,35.43229238772693,6.719210031288367
4.622250405,35.63559394188689,6.762361704209923
4.632538341,35.837809248803815,6.805396397096559
4.642613767,36.03883131102541,6.848295488990739
4.652499642,36.23862874567791,6.891052274803243
4.662202351,36.437212453340706,6.933667180105599
4.671728384,36.63459357796716,6.9761406334951195
4.681084334,36.83078350879905,7.018473068623561
4.690275348,37.02579901818655,7.060665754187418
4.699293796,37.21970796403358,7.102728343339654
4.708135645,37.4125721129636,7.144669427876655
4.71679882,37.60444831777792,7.186496837662997
4.725281382,37.79539430086631,7.228218593020873
4.733581519,37.98546845329769,7.2698428698384685
4.741697395,38.174733367652685,7.3113784644361735
4.749627392,38.363267469283635,7.352836781738389
4.757369944,38.5511456991143,7.39422853948536
4.76492349,38.73844352851746,7.435564690814977
4.772286389,38.92523541809338,7.476856074133779
4.779456895,39.11159641014873,7.518113708662644
4.786432906,39.29761627110983,7.559350623608353
4.793213995,39.48340130347507,7.600582664695246
4.799800114,39.66905525670681,7.641825235169684
4.806191229,39.85468010837185,7.683093394217731
4.812387321,40.04037607598461,7.7244018586265195
4.818388407,40.226242280945186,7.765765152730702
4.824194617,40.412379380835134,7.807198193086603
4.82980608,40.5988863317417,7.848715568633507
4.835222921,40.785860322032704,7.890331523287325
4.840445263,40.9733968552944,7.932059974459397
4.845473237,41.161588730115575,7.973914359345222
4.850307569,41.350428119933156,8.015892971856434
4.854948782,41.5397895934656,8.057976519136941
4.859397332,41.729564163768636,8.100148246019788
4.863659935,41.91997932116895,8.14244156385381
4.867744964,42.11134961966732,8.184902641777345
4.871647733,42.303034877957465,8.227435596787213
4.875360594,42.49392206735897,8.269874369681478
4.878871912,42.68222584093529,8.311950839806592
4.882167583,42.86586766084287,8.353346799608186
4.885231177,43.042030679726665,8.393619199451598
4.888013633,43.204789699024495,8.431809130019444
4.888370365,43.225567604377446,8.436822537746432
4.888719186,43.245824420035504,8.441751457604484
4.889058384,43.26540026354976,8.44656909562761
4.889386123,43.28412790993777,8.451246912524653
4.889700442,43.3018333479652,8.45575459399782
4.889999275,43.318337841923615,8.460060284804063
4.890280442,43.3334562215303,8.464130199813898
4.890541537,43.34697937262811,8.467925491921411
4.8907801,43.35869944232651,8.471406421913967
4.890993242,43.36838185852266,8.474527330094391
4.891160176,43.37435273031439,8.476978771002832
4.89121616,43.37161340566121,8.47780191853738
4.891119083,43.35747064699288,8.476374685811875
4.890858113,43.33205901925327,8.47254751923793
4.890472444,43.29914974284388,8.466919824809192
4.890016073,43.26304007066771,8.460302929319399
4.889537703,43.22652559551134,8.453416581012759
4.889050749,43.190112472001125,8.44645828600436
4.888557414,43.15395129645259,8.439461204791565
4.888059635,43.11817420240196,8.432454118568492
4.887559173,43.08288943538613,8.425462398233886
4.887057432,43.048151017184,8.418505195693047
4.886555339,43.01398329080219,8.411595403417264
4.886053479,42.98038506142307,8.404740588522424
4.885552204,42.94734220128466,8.397944766354636
4.885051616,42.91482439045816,8.391208520996017
4.881428139,42.69001061569148,8.343888539524803
4.877739383,42.47708958798309,8.298156371186428
4.873956703,42.27230845590197,8.253581163859094
4.870052297,42.07288335628922,8.20979746067425
4.866010483,41.87750382817768,8.166628191647902
4.861817516,41.685091698655896,8.12392159009851
4.857465471,41.49509487927305,8.081599879655062
4.852948581,41.30715179057131,8.039611398293761
4.848260573,41.12085410898299,7.99789703181543
4.84339274,40.93569068303158,7.9563809282793665
4.838334141,40.75107402584426,7.914975102858769
4.833073656,40.5664529494463,7.873596716016601
4.827606823,40.3816454403974,7.832218634630281
4.821933815,40.196639945215075,7.790839449264899
4.816054866,40.01142527990613,7.749457792830113
4.809970227,39.82598996831367,7.70807224015359
4.803680282,39.64032428976461,7.66668160785395
4.797187209,39.45443443871157,7.625287023039389
4.790492973,39.26827910542584,7.5838826013642
4.783599149,39.081802372121864,7.542460263883701
4.77650733,38.8949470132197,7.5010116877389015
4.769219126,38.70765449770292,7.4595283074097285
4.761735969,38.519836969151065,7.4179971177686665
4.754058695,38.33136643751517,7.376399569927792
4.746187879,38.14215760503589,7.334723287591195
4.738124251,37.95212819015659,7.292956486424008
4.729868656,37.76119606696572,7.251087467322276
4.721422158,37.56928152397244,7.209105102557413
4.712785791,37.37630144810055,7.166997554315694
4.703960928,37.18217765546823,7.124754086251083
4.694949081,36.98683214371791,7.082364011488246
4.685751965,36.79018859399309,7.0398170069999715
4.676371504,36.59217238109181,6.997103099274574
4.666815763,36.39269536145112,6.954210291532454
4.657088745,36.19171546717019,6.911133389118201
4.647173715,35.98928489958777,6.867882057411319
4.637053534,35.78545867559995,6.824466363365313
4.626711223,35.58029250974909,6.780896442084714
4.616129254,35.373846109783564,6.7371830431252455
4.605274038,35.166235485643966,6.69334577938788
4.594109042,34.95758035818586,6.6494050818538
4.582600956,34.74799098515832,6.605379982899262
4.570716941,34.53757849122794,6.561289648047973
4.558424672,34.32645462822052,6.517153331911582
4.545689886,34.114735429700914,6.472991093417522
4.53247061,33.902576564058116,6.428829423647181
4.518726382,33.690155626440855,6.384697944463666
4.504417736,33.47765058298092,6.340626339324692
4.489506504,33.26524435893783,6.2966453347891
4.473956356,33.05312181291628,6.252786179066737
4.457756925,32.84137095649574,6.209064621424315
4.440914337,32.630032952374776,6.165488597182727
4.423425821,32.41917013514504,6.122069867791865
4.405290305,32.20884257174265,6.078819718144422
4.386508384,31.999107011202135,6.035748782140019
4.36708017,31.79002082041375,5.992867839646754
4.347005974,31.581648752071185,5.950188786374674
4.326289816,31.374055525180296,5.907722818759128
4.304936567,31.16730544753996,5.865480931327254
4.282951697,30.96146297021863,5.823474073012901
4.26034125,30.75659243980462,5.781713100205621
4.237111804,30.552757751071397,5.74020871168603
4.21327014,30.350019590674446,5.698970893839649
4.188823326,30.148436587757566,5.658009161575647
4.163778928,29.948067244647778,5.617332957313214
4.138144995,29.748969769320013,5.576951621394676
4.111930301,29.5511988831485,5.536873922532298
4.085146147,29.354793210808992,5.497105718400047
4.057804916,29.15980238910722,5.457653911661479
4.029919071,28.96627650119375,5.418525332629497
4.001501125,28.774263631272376,5.379726393010746
3.97256361,28.583809995235857,5.341263117996142
3.943119352,28.394957857663933,5.303140878410288
3.913183084,28.207745478483524,5.265363664383459
3.882770586,28.022213708119732,5.22793560739281
3.851897277,27.838400872729185,5.190860342890327
3.820578387,27.65634406571216,5.154141274706823
3.788828544,27.47607647444966,5.117781029129399
3.756664698,27.297628843263173,5.081781730048294
3.724103577,27.121022052141793,5.046143628905533
3.691160811,26.94628112233739,5.0108678257507115
3.657852992,26.7734239651473,4.975954098678403
3.624196752,26.602466064970596,4.941401808434698
3.590208316,26.433421239879877,4.907209983566304
3.555904648,26.26630156388995,4.873377327983783
3.52130265,26.101114128812654,4.83990148839336
3.486419375,25.93786698580456,4.80678027921732
3.451271997,25.776569094764138,4.774011675498953
3.415877993,25.61723149155469,4.7415939104939575
3.379849396,25.458086992700437,4.709161671335451
3.343601995,25.300930706825113,4.677079527950724
3.307147697,25.145718186978293,4.645339319738636
3.270498447,24.99240489975075,4.613932869711464
3.233666225,24.840946233252087,4.58285198567628
3.196663036,24.69129754187145,4.55208846887673
3.159500531,24.54341268153364,4.5216338106803535
3.122189811,24.397243422219532,4.491479067567373
3.084741953,24.252741671408735,4.461615316995638
3.04716805,24.10985964050112,4.432033690464991
3.009479507,23.968546560470614,4.402724819612067
2.971691125,23.82870260352433,4.373671189432966
2.933808598,23.690306015179086,4.344868842526473
2.895834646,23.553367800759574,4.316319433055915
2.857771746,23.417898504919076,4.28802450523647
2.819622775,23.283910503670786,4.2599859711019
2.78138347,23.15148028784068,4.232217071530119
2.743031144,23.020852245697903,4.204760703212822
2.704553237,22.892185378432426,4.177644668698472
2.665938129,22.765634860341986,4.150896121434383
2.627175109,22.641360682636385,4.12454317153512
2.588253247,22.519523959430494,4.098614099116937
2.54916429,22.400281403911784,4.073136119590115
2.509905617,22.283761775920826,4.048131082658625
2.470474656,22.170086680276235,4.02361946692181
2.430870833,22.059384249155443,3.999623122828033
2.391092406,21.95177977035451,3.976163260078256
2.351139908,21.847400138542856,3.953261352509068
2.31102412,21.74626981468741,3.930920426484493
2.270762225,21.648319320957388,3.9091272953543807
2.230371096,21.55347553233847,3.887868102111268
2.189867205,21.461664343041452,3.8671287657639413
2.149266643,21.37281094850581,3.846895029337797
2.108584685,21.28684035256382,3.8271526713431774
2.067833399,21.203681389352003,3.8078887802524055
2.027023852,21.123263508375324,3.789090664544948
1.986166802,21.04551570675445,3.770745509924095
1.945272713,20.97036669888512,3.7528404095640395
1.904351593,20.897746218017414,3.735362623483321
1.863411821,20.827592057415327,3.718301011750614
1.82246098,20.759845247062533,3.701645060615026
1.781506465,20.69444717968408,3.6853842760490707
1.740555502,20.631339660420043,3.6695081932208855
1.699615187,20.57046473547284,3.6540063453343583
1.658693003,20.5117630298651,3.638867876378901
1.617795258,20.45518901218834,3.624084395622459
1.576927624,20.400702293116023,3.6096484537715803
1.536095695,20.348262504640505,3.5955525809649216
1.495304994,20.29782934390743,3.5817892960163245
1.454560982,20.24936265389278,3.568351121035975
1.413869069,20.202822476848482,3.5552305915912528
1.373234619,20.15816907863152,3.5424202611483304
1.332662961,20.115363019021764,3.5299127146358256
1.292159399,20.07436521064204,3.5177005792498828
1.251729202,20.035137013734005,3.505776544254179
1.21137601,19.997646360314,3.494134726628609
1.171102247,19.961863483239014,3.4827698725576792
1.130910716,19.927756224102733,3.4716762256767666
1.090804212,19.895292403164202,3.4608480072000023
1.050785527,19.864439874753216,3.450279426127309
1.010857414,19.83516715356164,3.4399647899230286
0.97102327,19.807449343652344,3.4298993338263055
0.931287638,19.781265615872837,3.4200787077147727
0.891655203,19.75659585365643,3.410498650355922
0.852130737,19.733420637907905,3.4011549998225843
0.8127191,19.71172125004533,3.3920436962792375
0.773425206,19.69148304835093,3.3831613450106133
0.734259272,19.67270077307625,3.3745050673468606
0.695233297,19.655372641128107,3.3660720842650544
0.656360255,19.639500126849754,3.3578602791381025
0.617652763,19.625087422335746,3.3498679203133745
0.579124357,19.61214438052153,3.342094008049084
0.540795771,19.600690427709093,3.3345380842704473
0.502687519,19.59073314409742,3.3271977755978535
0.464820277,19.582283193774227,3.3200713519917264
0.427214895,19.575356274636945,3.3131579288749458
0.389893556,19.56997338010005,3.3064576941865353
0.35287536,19.566143319587443,3.2999692610042115
0.316179162,19.563862840792538,3.293689550613771
0.279825729,19.56313803772766,3.2876168313653706
0.243822309,19.563945484119056,3.281746920274194
0.208147302,19.5662092245988,3.276071725800912
0.172781869,19.5698575585414,3.2705831779337577
0.137866826,19.575120072242914,3.265297510222273
0.103780603,19.582637218028353,3.2602644666056624
0.071141513,19.593382022435307,3.25556236594034
0.040620591,19.60824325329287,3.251267572709829
0.012161631,19.626855615228926,3.2473533912351327
0.008412579,19.62980485007278,3.2468442166677867
0.004910147,19.633113193037595,3.24636991198608
0.001691607,19.636814718213056,3.2459350926052877
-0.001205248,19.640939492456713,3.245544558172295
-0.003743841,19.645511280547233,3.2452030701902848
-0.005860957,19.650577018174683,3.244918881731915
