        X           R*THETA          R
     5.0821128     8.2679300     8.4922686
     5.0820584     8.2684383     8.4909401
     5.0818825     8.2691555     8.4866476
     5.0815430     8.2674589     8.4783716
     5.0809636     8.2597256     8.4646339
     5.0801115     8.2434320     8.4447079
     5.0789986     8.2187157     8.4195137
     5.0776110     8.1854410     8.3893909
     5.0759368     8.1436443     8.3546581
     5.0739574     8.0938015     8.3156319
     5.0716558     8.0362854     8.2723274
     5.0690112     7.9712472     8.2249489
     5.0660267     7.8988371     8.1737280
     5.0626774     7.8191457     8.1188765
     5.0589504     7.7322187     8.0606661
     5.0548162     7.6385641     7.9991422
     5.0501914     7.5394087     7.9337864
     5.0450301     7.4350753     7.8645887
     5.0392838     7.3257966     7.7915888
     5.0328941     7.2117548     7.7148690
     5.0257874     7.0931101     7.6345353
     5.0179057     6.9700351     7.5506902
     5.0091605     6.8427224     7.4634337
     4.9994516     6.7114587     7.3728261
     4.9886684     6.5765624     7.2789183
     4.9766946     6.4383593     7.1817694
     4.9633856     6.2971568     7.0814633
     4.9485965     6.1532793     6.9781032
     4.9321585     6.0070767     6.8717937
     4.9138908     5.8589201     6.7626386
     4.8935843     5.7092090     6.6507668
     4.8710284     5.5583396     6.5362988
     4.8459873     5.4067230     6.4194016
     4.8182158     5.2547498     6.3002439
     4.7874470     5.1028237     6.1790462
     4.7534275     4.9513316     6.0560489
     4.7158990     4.8006458     5.9315643
     4.6746178     4.6511245     5.8059359
     4.6293573     4.5031581     5.6795568
     4.5799184     4.3571234     5.5528107
     4.5260901     4.2133365     5.4259996
     4.4676733     4.0720396     5.2994008
     4.4045033     3.9335182     5.1733932
     4.3364820     3.7980356     5.0483751
     4.2636070     3.6657965     4.9247870
     4.1859207     3.5369573     4.8030691
     4.1035194     3.4116073     4.6835999
     4.0165591     3.2898004     4.5667100
     3.9252341     3.1715796     4.4527144
     3.8298101     3.0569675     4.3418865
     3.7306035     2.9459343     4.2344618
     3.6279721     2.8384144     4.1306477
     3.5223007     2.7343369     4.0305939
     3.4139819     2.6335547     3.9344032
     3.3034050     2.5356631     3.8421376
     3.1909781     2.4404824     3.7538223
     3.0770874     2.3478625     3.6694498
     2.9620848     2.2576561     3.5889702
     2.8463163     2.1697316     3.5123253
     2.7301283     2.0839882     3.4394479
     2.6138453     2.0003080     3.3702588
     2.4977818     1.9185051     3.3046715
     2.3822403     1.8384204     3.2425988
     2.2674813     1.7599803     3.1839356
     2.1537387     1.6831399     3.1285686
     2.0412438     1.6078341     3.0763912
     1.9302160     1.5340070     3.0273004
     1.8208628     1.4616143     2.9811919
     1.7133775     1.3906240     2.9379644
     1.6079472     1.3210131     2.8975182
     1.5047523     1.2527674     2.8597541
     1.4039577     1.1858904     2.8245726
     1.3057256     1.1204013     2.7918770
     1.2102051     1.0563220     2.7615681
     1.1175382     0.9936832     2.7335451
     1.0278583     0.9325159     2.7077100
     0.9412909     0.8728498     2.6839607
     0.8579472     0.8147444     2.6621933
     0.7779182     0.7582863     2.6423016
     0.7013028     0.7035378     2.6241837
     0.6281893     0.6505428     2.6077342
     0.5586804     0.5992732     2.5928581
     0.4928871     0.5496531     2.5794587
     0.4308473     0.5017878     2.5674319
     0.3725539     0.4558720     2.5566678
     0.3182225     0.4119638     2.5441830
     0.2677609     0.3700806     2.5319407
     0.2212387     0.3301193     2.5210218
     0.1786988     0.2921215     2.5113449
     0.1400605     0.2563117     2.5028095
     0.1052194     0.2229158     2.4953189
     0.0746677     0.1913597     2.4889114
     0.0488664     0.1613081     2.4836168
     0.0277981     0.1331178     2.4793727
     0.0116249     0.1070396     2.4761624
     0.0007938     0.0834120     2.4740355
    -0.0031907     0.0623802     2.4732585
     0.0002996     0.0471504     2.4739392
     0.0069480     0.0388850     2.4752419
     0.0123638     0.0352657     2.4763083
     0.0144929     0.0343993     2.4767289
     0.0167780     0.0338466     2.4771807
     0.0237295     0.0335843     2.4785612
     0.0349233     0.0352888     2.4807997
     0.0498038     0.0399259     2.4838073
     0.0680164     0.0479755     2.4875364
     0.0895328     0.0595812     2.4920106
     0.1144101     0.0747837     2.4972758
     0.1424917     0.0937476     2.5033393
     0.1735429     0.1166643     2.5101924
     0.2078105     0.1428740     2.5179353
     0.2457506     0.1714783     2.5267310
     0.2869869     0.2030559     2.5365560
     0.3317027     0.2372116     2.5475233
     0.3801450     0.2736098     2.5580401
     0.4323199     0.3122739     2.5677104
     0.4881065     0.3531565     2.5785112
     0.5475475     0.3960955     2.5905433
     0.6106351     0.4409926     2.6039076
     0.6773404     0.4877702     2.6187010
     0.7476015     0.5363699     2.6350243
     0.8213337     0.5867445     2.6529703
     0.8984616     0.6388169     2.6726408
     0.9789143     0.6925098     2.6941395
     1.0625871     0.7477964     2.7175660
     1.1493480     0.8046679     2.7430127
     1.2390730     0.8630854     2.7705750
     1.3316987     0.9229518     2.8003707
     1.4271477     0.9841854     2.8325191
     1.5251625     1.0468900     2.8670812
     1.6253816     1.1112802     2.9040742
     1.7277186     1.1772914     2.9436135
     1.8323747     1.2445498     2.9859438
     1.9393015     1.3129332     3.0312300
     2.0479946     1.3828244     3.0794518
     2.1579964     1.4545853     3.1305928
     2.2691939     1.5281719     3.1847908
     2.3815217     1.6034750     3.2422230
     2.4947672     1.6805414     3.3030128
     2.6086445     1.7595032     3.3672454
     2.7228427     1.8405229     3.4350061
     2.8370543     1.9237711     3.5063717
     2.9509971     2.0093315     3.5814452
     3.0643897     2.0971622     3.6603360
     3.1768835     2.1873274     3.7431109
     3.2880402     2.2802083     3.8297541
     3.3974471     2.3761768     3.9202416
     3.5047712     2.4751968     4.0146098
     3.6096985     2.5773256     4.1128731
     3.7118371     2.6827190     4.2149482
     3.8107612     2.7915945     4.3206782
     3.9061017     2.9040611     4.4298573
     3.9975319     3.0201147     4.5422702
     4.0847869     3.1397028     4.6576700
     4.1676445     3.2627876     4.7757745
     4.2459350     3.3893225     4.8962541
     4.3195438     3.5192533     5.0187540
     4.3883991     3.6524332     5.1428704
     4.4524965     3.7886529     5.2681727
     4.5118957     3.9276898     5.3942561
     4.5667391     4.0693159     5.5207644
     4.6171980     4.2133069     5.6473684
     4.6634645     4.3594589     5.7737699
     4.7057395     4.5074849     5.8996296
     4.7442303     4.6569886     6.0245285
     4.7791629     4.8075914     6.1480989
     4.8107891     4.9589438     6.2700362
     4.8393741     5.1106815     6.3900690
     4.8651538     5.2624383     6.5079689
     4.8883891     5.4138436     6.6235299
     4.9093080     5.5645080     6.7365818
     4.9281344     5.7140555     6.8469820
     4.9450712     5.8620958     6.9545922
     4.9603086     6.0082598     7.0592966
     4.9740195     6.1521792     7.1609964
     4.9863577     6.2934842     7.2596016
     4.9974670     6.4318228     7.3550501
     5.0074739     6.5668588     7.4472852
     5.0164967     6.6982803     7.5362554
     5.0246353     6.8257856     7.6219072
     5.0319715     6.9491000     7.7041969
     5.0385952     7.0679345     7.7830877
     5.0445690     7.1819963     7.8585496
     5.0499578     7.2910237     7.9305501
     5.0548100     7.3947697     7.9990497
     5.0591669     7.4930434     8.0639725
     5.0630760     7.5856481     8.1252613
     5.0665379     7.6731071     8.1823969
     5.0695748     7.7556777     8.2349262
     5.0722189     7.8329720     8.2828016
     5.0744948     7.9045782     8.3259974
     5.0764174     7.9701624     8.3644743
     5.0780253     8.0294704     8.3981638
     5.0793238     8.0824022     8.4267311
     5.0803466     8.1286860     8.4500742
     5.0811234     8.1680737     8.4684067
     5.0816736     8.1998711     8.4815674
     5.0820041     8.2234955     8.4896154
     5.0821691     8.2393389     8.4936371
     5.0822234     8.2479134     8.4949656
     5.0822339     8.2505970     8.4952183
