        X           R*THETA          R
     4.8953648     6.3589230     8.4953861
     4.8953199     6.3595362     8.4946918
     4.8951678     6.3608403     8.4923191
     4.8948460     6.3609829     8.4872952
     4.8942981     6.3581171     8.4788704
     4.8935084     6.3513246     8.4668388
     4.8924680     6.3399358     8.4512281
     4.8912020     6.3240099     8.4325285
     4.8897109     6.3034205     8.4109325
     4.8879991     6.2780976     8.3866243
     4.8860769     6.2481017     8.3598747
     4.8839407     6.2141647     8.3306866
     4.8815746     6.1763639     8.2989502
     4.8789730     6.1345344     8.2647762
     4.8761277     6.0888705     8.2282505
     4.8730302     6.0393624     8.1894493
     4.8696609     5.9860001     8.1484842
     4.8660126     5.9288869     8.1054821
     4.8620696     5.8683410     8.0604630
     4.8577909     5.8047309     8.0132818
     4.8531532     5.7382579     7.9639692
     4.8481336     5.6690073     7.9125648
     4.8426962     5.5971050     7.8591108
     4.8368101     5.5227194     7.8036499
     4.8304310     5.4459872     7.7462187
     4.8235245     5.3670225     7.6868567
     4.8160429     5.2859535     7.6255999
     4.8079381     5.2029428     7.5624971
     4.7991567     5.1181664     7.4975877
     4.7896399     5.0318117     7.4309230
     4.7793241     4.9440637     7.3625531
     4.7681518     4.8551416     7.2925282
     4.7560463     4.7652779     7.2209082
     4.7429347     4.6746397     7.1477604
     4.7287450     4.5833611     7.0731497
     4.7133994     4.4916201     6.9971619
     4.6968193     4.3996220     6.9198914
     4.6789179     4.3076229     6.8414607
     4.6596346     4.2158976     6.7619929
     4.6388912     4.1246567     6.6816411
     4.6166277     4.0340571     6.6005435
     4.5927563     3.9441869     6.5188227
     4.5671997     3.8551359     6.4365649
     4.5398831     3.7671854     6.3538713
     4.5107341     3.6805875     6.2708817
     4.4797158     3.5952358     6.1877851
     4.4468150     3.5110097     6.1047845
     4.4120011     3.4281814     6.0220838
     4.3752890     3.3470750     5.9398313
     4.3366790     3.2677097     5.8582029
     4.2962012     3.1899941     5.7773480
     4.2538829     3.1139615     5.6974177
     4.2097635     3.0396883     5.6185613
     4.1638975     2.9672043     5.5409188
     4.1163554     2.8965154     5.4646244
     4.0672312     2.8276308     5.3898144
     4.0166254     2.7605505     5.3166304
     3.9646702     2.6952546     5.2451797
     3.9115033     2.6317244     5.1755695
     3.8572528     2.5699286     5.1078920
     3.8020675     2.5098243     5.0422015
     3.7461052     2.4513772     4.9785643
     3.6895351     2.3945649     4.9170480
     3.6325331     2.3393598     4.8576818
     3.5752511     2.2857237     4.8004918
     3.5178561     2.2336235     4.7454796
     3.4605114     2.1830406     4.6926441
     3.4033756     2.1339078     4.6419868
     3.3466058     2.0861039     4.5934863
     3.2903533     2.0395639     4.5471187
     3.2347620     1.9942582     4.5028539
     3.1799672     1.9501525     4.4606533
     3.1260986     1.9072285     4.4204769
     3.0732760     1.8654910     4.3822846
     3.0216155     1.8249582     4.3460255
     2.9712222     1.7856938     4.3116493
     2.9221921     1.7477573     4.2791042
     2.8746181     1.7111915     4.2483435
     2.8285882     1.6760167     4.2193174
     2.7841878     1.6422203     4.1919823
     2.7414954     1.6097798     4.1662879
     2.7005606     1.5787045     4.1421785
     2.6614285     1.5490197     4.1195970
     2.6241515     1.5207392     4.0985007
     2.5887830     1.4938660     4.0788498
     2.5553985     1.4683820     4.0606165
     2.5240734     1.4442483     4.0437818
     2.4948797     1.4214375     4.0283241
     2.4678729     1.3999510     4.0142231
     2.4430606     1.3798512     4.0014315
     2.4204524     1.3612067     3.9899082
     2.4002070     1.3439262     3.9796987
     2.3824158     1.3278788     3.9708085
     2.3671112     1.3131100     3.9632235
     2.3544712     1.2997288     3.9569995
     2.3450940     1.2876420     3.9524071
     2.3396380     1.2772280     3.9497457
     2.3381946     1.2692724     3.9490414
     2.3391693     1.2638626     3.9495170
     2.3410044     1.2607994     3.9504123
     2.3418829     1.2598871     3.9508410
     2.3429043     1.2590777     3.9513390
     2.3464577     1.2572426     3.9530733
     2.3528233     1.2556906     3.9561920
     2.3617256     1.2551411     3.9605680
     2.3729224     1.2566509     3.9660962
     2.3862102     1.2608041     3.9726996
     2.4015603     1.2674870     3.9803774
     2.4191508     1.2763069     3.9892490
     2.4389532     1.2872280     3.9993269
     2.4608927     1.3002256     4.0106096
     2.4849591     1.3151008     4.0231218
     2.5111039     1.3316168     4.0368867
     2.5392697     1.3497965     4.0519142
     2.5694118     1.3696712     4.0682325
     2.6015065     1.3911853     4.0858803
     2.6355379     1.4142545     4.1049042
     2.6714902     1.4387816     4.1253605
     2.7093353     1.4646881     4.1473036
     2.7490213     1.4919455     4.1707768
     2.7904866     1.5205604     4.1958194
     2.8336489     1.5505711     4.2224774
     2.8784306     1.5820094     4.2507830
     2.9247601     1.6148908     4.2807894
     2.9725628     1.6492038     4.3125520
     3.0217528     1.6849114     4.3461204
     3.0722358     1.7219760     4.3815432
     3.1239061     1.7603470     4.4188709
     3.1766548     1.7999729     4.4581470
     3.2303658     1.8408387     4.4994144
     3.2849162     1.8829460     4.5427179
     3.3401744     1.9263201     4.5880980
     3.3960023     1.9709965     4.6355844
     3.4522548     2.0170145     4.6852059
     3.5087805     2.0644441     4.7369800
     3.5654263     2.1134076     4.7909174
     3.6220345     2.1639843     4.8470206
     3.6784418     2.2162027     4.9052925
     3.7344878     2.2700934     4.9657121
     3.7900171     2.3256981     5.0282502
     3.8448558     2.3830457     5.0928664
     3.8988409     2.4421594     5.1594887
     3.9518311     2.5030792     5.2280536
     4.0036879     2.5658486     5.2984986
     4.0542741     2.6304951     5.3707280
     4.1034660     2.6970296     5.4446220
     4.1511450     2.7654607     5.5200534
     4.1972098     2.8357880     5.5968876
     4.2415886     2.9080024     5.6750011
     4.2842355     2.9821153     5.7542915
     4.3250728     3.0580659     5.8345556
     4.3639793     3.1356733     5.9154396
     4.4009805     3.2149425     5.9968791
     4.4363241     3.2962658     6.0793500
     4.4700289     3.3796675     6.1628137
     4.5016632     3.4642794     6.2460589
     4.5310922     3.5495505     6.3283195
     4.5587482     3.6361196     6.4104481
     4.5849257     3.7244635     6.4930902
     4.6094694     3.8140135     6.5755224
     4.6322827     3.9042041     6.6570377
     4.6534939     3.9950380     6.7376752
     4.6732426     4.0865541     6.8175635
     4.6916265     4.1786194     6.8966522
     4.7087102     4.2710118     6.9748116
     4.7245197     4.3633623     7.0517569
     4.7391176     4.4553390     7.1272354
     4.7525878     4.5467424     7.2011824
     4.7650204     4.6374359     7.2736001
     4.7765145     4.7273550     7.3445702
     4.7871552     4.8163610     7.4140825
     4.7969737     4.9041810     7.4819889
     4.8060403     4.9905682     7.5481744
     4.8144121     5.0753522     7.6126137
     4.8221416     5.1583591     7.6752715
     4.8292775     5.2394047     7.7360911
     4.8358679     5.3183393     7.7950196
     4.8419576     5.3950357     7.8520274
     4.8475900     5.4693909     7.9070969
     4.8527889     5.5412698     7.9601736
     4.8575945     5.6105223     8.0111656
     4.8620329     5.6770463     8.0600491
     4.8661294     5.7407393     8.1068487
     4.8699107     5.8013635     8.1515007
     4.8733854     5.8591194     8.1938515
     4.8765569     5.9141860     8.2336760
     4.8794441     5.9664145     8.2709141
     4.8820691     6.0155907     8.3055305
     4.8844385     6.0615115     8.3374472
     4.8865767     6.1044312     8.3667641
     4.8884745     6.1438923     8.3932924
     4.8901281     6.1801200     8.4169054
     4.8915396     6.2135572     8.4374428
     4.8927050     6.2436748     8.4547510
     4.8936462     6.2703557     8.4689369
     4.8943682     6.2933059     8.4799433
     4.8948760     6.3121696     8.4877586
     4.8951979     6.3269553     8.4927835
     4.8953676     6.3372779     8.4954300
     4.8954396     6.3432775     8.4965525
     4.8954592     6.3452644     8.4968576
